Frequency (Hz)	Zre (ohms)	Zim (ohms)	
1000000	280.948190759414	172.077532317289	
926118.75	327.457316624622	49.705147286098	
857695.875	355.266669171274	-29.3473009249678	
794328.25	386.866505916649	-137.259695799191	
735642.25	449.847544892896	-218.826478805138	
681292.0625	536.301140161633	-274.954746414685	
630957.375	632.851765947972	-284.059840713578	
584341.4375	705.164202012181	-290.953312907937	
541169.5	775.904137704648	-280.955704235082	
501187.21875	815.207512165622	-249.312330943399	
464158.875	857.184998998317	-221.98077268545	
429866.25	881.368870627289	-200.756325151802	
398107.15625	911.291554987474	-183.675587088109	
368694.5	927.833161805767	-165.669344062836	
341454.875	933.390596790944	-157.020511031818	
316227.78125	944.345025922255	-143.74186442614	
292864.46875	889.76650475244	-78.1756696298712	
271227.25	912.431483457313	-72.0227163033196	
251188.640625	928.40197592826	-68.323092918395	
232630.5	942.170739496624	-63.7367688507522	
215443.46875	952.466752373763	-61.1901967310029	
199526.234375	960.215382660384	-56.7867017012343	
184784.984375	964.523186876181	-52.0266015475886	
171132.828125	969.429983510171	-49.6975340990134	
158489.3125	969.472610144488	-47.8961851870789	
146779.921875	973.885897480196	-42.5174224123864	
135935.640625	977.417026049944	-40.4038165594535	
125892.5390625	980.018434668734	-35.3884948392008	
116591.4375	981.985871548395	-33.4066495293206	
107977.515625	985.444389812452	-30.227313135653	
100000	987.745806929749	-26.540044485293	
92611.875	990.165106497003	-24.8690132686261	
85769.59375	991.053443010099	-23.0135006054928	
79432.8203125	992.804359479133	-21.2258372454316	
73564.2265625	993.213970410977	-20.1394275369498	
68129.203125	994.854647197653	-17.9587227027935	
63095.734375	995.508737998638	-16.883559141487	
58434.140625	996.1688664339	-16.8266639038541	
54116.953125	996.744089883172	-15.1239058721672	
50118.72265625	996.760802909445	-14.7610319345243	
46415.88671875	997.740976061687	-13.0860894248232	
42986.625	998.61532792853	-12.5826597298678	
39810.71875	998.662549654735	-11.4890151879073	
36869.44921875	999.44107473476	-12.4289100775622	
34145.48828125	999.611687287975	-10.6803998574956	
31622.77734375	997.7514587986	-11.0944281998954	
29286.4453125	1000.27484227174	18.7248713995085	
27122.7265625	999.473756651972	15.298129018485	
25118.865234375	999.668434415657	13.2652539313623	
23263.05078125	998.30135286044	12.5337763549476	
21544.34765625	998.745279101109	11.4143010042156	
19952.623046875	997.505737888624	9.99384258463429	
18478.498046875	998.175679909425	8.59877248973411	
17113.283203125	998.335390357194	8.88442645280029	
15848.931640625	998.477621148836	6.8390468458003	
14677.9931640625	998.560929511047	6.9956453772287	
13593.5634765625	999.864242528305	6.38484368859151	
12589.25390625	999.050936193059	6.93043737950211	
11659.1435546875	999.409485398579	6.27190881864017	
10797.751953125	998.809684167191	3.84913440967853	
10000	1001.54570976086	7.82954876354473	
9261.1875	1001.49840109747	8.17998452952543	
8576.958984375	1001.06392395389	5.24559725725344	
7943.2822265625	1001.69727791094	2.66903662105471	
7356.42236328125	1001.71649426326	3.03689093407753	
6812.9208984375	1001.67064620189	3.54747931445025	
6309.5732421875	1001.52932195267	2.63471804271439	
5843.4140625	1002.16961624577	2.72748573345955	
5411.6953125	1001.43959347081	2.16534096983507	
5011.87255859375	1001.26200177271	0.808824893139653	
4641.5888671875	1001.83421164166	1.29944555943721	
4298.662109375	1000.78290907379	-0.32669590603677	
3981.07177734375	1000.73510145079	-0.50018618592941	
3686.94506835938	1000.93708474442	-1.20798842613467	
3414.548828125	1001.4860168912	-1.27891136386379	
3162.27758789063	1001.3242822342	-1.44384050857004	
2928.64453125	1001.8233468444	-2.76000449952527	
2712.2724609375	1002.03521009974	-3.92801221943165	
2511.88647460938	1000.96761805342	-4.50234763377265	
2326.30517578125	1001.44010748186	-4.26031223363628	
2154.4345703125	1000.89116561328	-5.85004218235805	
1995.26232910156	1001.42387095798	-5.6180846606919	
1847.84985351563	1001.619058544	-6.99475973018637	
1711.32824707031	1001.63409129921	-7.67771813457293	
1584.89318847656	1001.44827405918	-8.36741033755963	
1467.79931640625	1001.6260002602	-9.26471963954082	
1359.3564453125	1001.48516429362	-10.04444082214	
1258.92541503906	1001.46795393748	-11.3071835492063	
1165.91442871094	1001.47483539571	-11.9437963245397	
1079.77514648438	1001.46805435377	-13.4772336358093	
1000	1001.50554246651	-14.2379926144439	
926.118713378906	1001.39046640553	-15.4915304836588	
857.695922851563	1001.63253836473	-17.2046040371029	
794.328247070313	1001.16549708211	-18.0828973171967	
735.642272949219	1001.47972311544	-20.1574813175046	
681.292053222656	1001.14900144311	-22.0674806487057	
630.957336425781	1001.36025805227	-23.9008174083921	
584.341430664063	1001.15849522118	-25.610091800009	
541.169555664063	1001.27048678865	-28.0754283785668	
501.187225341797	1001.30865729565	-29.9234603071562	
464.158874511719	1001.89570584944	-32.5987492846062	
429.866241455078	1001.59300602213	-35.6182187281318	
398.107177734375	1001.63791297557	-38.1474720205338	
368.694519042969	1001.79252381652	-41.1989520427615	
341.454895019531	1001.91899569349	-45.1746893194314	
316.227752685547	1001.20414545951	-49.3851523538474	
292.864471435547	1002.08147192231	-52.4832253303277	
271.227264404297	1001.74960031547	-57.3019101124391	
251.18864440918	1001.80153668641	-60.607678332307	
232.630508422852	1001.94670867351	-66.497590226833	
215.443466186523	1001.98222294147	-71.3650903510792	
199.526229858398	1002.46729539515	-77.5897450826643	
184.784973144531	1004.30321719051	-84.6947809987915	
171.132827758789	1004.67730066644	-89.4194658115357	
158.489318847656	1002.70618052904	-97.6750310523723	
146.779922485352	1002.06733026494	-102.316579352137	
135.935638427734	1000.17025832967	-113.403625656533	
125.892539978027	1002.98455592596	-121.824691783661	
116.591438293457	1002.44287062196	-133.111029151822	
107.977516174316	1004.2577257752	-141.383962517643	
100	1004.34130053581	-154.604898690425	
92.6118698120117	1003.94221980288	-164.322405807813	
85.7695922851563	1007.15272907122	-179.219452415589	
79.4328231811523	1003.42622978127	-192.684277758906	
73.5642242431641	1009.56051423054	-208.344164592275	
68.1292037963867	1007.82418506898	-221.352804494434	
63.0957336425781	1008.06894496015	-241.086206468687	
58.4341430664063	1008.00104126559	-262.671971688822	
54.1169509887695	1008.60729056534	-282.252213557715	
50.118724822998	1010.59530864996	-304.165514177869	
46.4158897399902	1011.91607049799	-329.276261441977	
42.9866218566895	1010.03921998045	-355.395647337759	
39.810718536377	1019.50372410861	-388.942594285222	
36.8694496154785	1016.98739099673	-421.36318216962	
34.1454887390137	1026.34219211144	-452.205038338946	
31.6227760314941	1023.81245321614	-480.728709939073	
29.2864456176758	1031.69576257188	-526.449147640854	
27.1227264404297	1036.20657511599	-567.994045427338	
25.1188640594482	1039.52743787107	-606.253433205006	
23.2630500793457	1046.78609267538	-661.759009425224	
21.5443477630615	1053.36144695337	-710.420841682278	
19.9526233673096	1062.73242664105	-770.922658109117	
18.4784984588623	1080.31212466499	-840.065436454844	
17.1132831573486	1084.35076521289	-896.102431793155	
15.8489322662354	1096.84829250145	-959.143753144917	
14.6779928207397	1118.14876583426	-1037.68890119098	
13.5935640335083	1131.12880009023	-1120.80787117645	
12.5892543792725	1152.62600995234	-1196.48942804635	
11.6591444015503	1180.04260762316	-1296.50408623964	
10.7977514266968	1206.97978609928	-1394.29217774039	
10	1233.01442550438	-1494.5024264946	
9.26118755340576	1276.26836202382	-1614.7417120298	
8.57695865631104	1314.09455926718	-1724.4877139568	
7.94328212738037	1366.65858871783	-1862.42452710145	
7.35642242431641	1424.48141674323	-2007.34988337708	
6.81292057037354	1493.50308418577	-2149.60394325349	
6.30957365036011	1566.73930002497	-2292.75758489061	
5.84341430664063	1651.55300894113	-2449.37552593232	
5.41169548034668	1749.90208547712	-2616.97872873177	
5.01187229156494	1862.6687350823	-2794.12614630398	
4.64158868789673	1992.25630415867	-2982.47347940649	
4.29866218566895	2129.8838313909	-3164.49651620383	
3.98107171058655	2303.13551206275	-3360.11117144459	
3.68694496154785	2487.53202547292	-3550.58555351033	
3.41454887390137	2691.19836607013	-3749.46066196435	
3.16227769851685	2920.38790553006	-3932.88883030775	
2.92864465713501	3156.74484748276	-4113.32632111751	
2.71227264404297	3433.50158305805	-4287.39611133015	
2.51188635826111	3727.72269939048	-4456.60718325826	
2.32630515098572	4040.98911774219	-4597.26671061053	
2.15443468093872	4374.16146003733	-4730.94764120864	
1.99526226520538	4770.08771007643	-4882.03990145638	
1.84784984588623	5087.09784410798	-4918.9474691751	
1.71132826805115	5463.19032295829	-4975.84194989804	
1.58489322662354	5844.21453159752	-4998.38498048438	
1.46779930591583	6231.96685794854	-4997.94950260726	
1.35935640335083	6613.43625032657	-4968.37394347168	
1.25892543792725	6987.38061599927	-4907.5893510275	
1.16591441631317	7346.63628788669	-4820.32886737153	
1.07977521419525	7696.21014659634	-4709.3945828687	
1	7992.30894738847	-4592.14914019234	
