Frequency (Hz)	|Z| (ohms)	Phase of Z (deg)	
1000000	415.230066323561	-43.8146272602309	
926118.75	482.087433930971	-70.4611691345342	
857695.875	595.784610080136	-82.5080958969381	
794328.25	779.979059369106	-96.7279476747212	
735642.25	1090.53865619201	-102.386694989461	
681292.0625	1450.60763615214	-103.91368287492	
630957.375	1844.46297248755	-100.884181299156	
584341.4375	2161.07455779942	-99.1178200674153	
541169.5	2521.71169196639	-97.1776591055208	
501187.21875	3026.51383749474	-95.4402076821945	
464158.875	3170.93089500426	-91.209122559657	
429866.25	3791.16124327596	-91.7869157843356	
398107.15625	3865.24653662254	-88.2536505706073	
368694.5	4581.53793877142	-89.3870778544807	
341454.875	5192.97455260091	-84.9829580934476	
316227.78125	4911.26898438303	-85.1723657337351	
292864.46875	6653.32604985145	-87.6097533743374	
271227.25	7408.01399177208	-84.4989210456132	
251188.640625	8048.74660318582	-84.1622527253472	
232630.5	8775.71261284113	-83.2995450692288	
215443.46875	9635.51337698298	-82.6219210279246	
199526.234375	10333.6217632631	-82.0601196355796	
184784.984375	11134.9063201445	-80.7103495399319	
171132.828125	11820.140213609	-79.9528948969999	
158489.3125	12795.163157069	-78.5298654529327	
146779.921875	13763.3246023441	-78.403569682244	
135935.640625	14853.6784972364	-77.5586169833164	
125892.5390625	15886.6803085848	-77.6915603804162	
116591.4375	17224.9855054421	-76.2185896759162	
107977.515625	18422.1302768568	-76.1840319951406	
100000	18852.7433227637	-75.0037151284013	
92611.875	19728.920222701	-75.198074226345	
85769.59375	22382.6609653926	-76.0831059904054	
79432.8203125	22698.4700059383	-73.3682034944092	
73564.2265625	24376.4580219834	-72.8317619141675	
68129.203125	25992.209049987	-73.5696015186176	
63095.734375	27584.805820261	-69.9242693325579	
58434.140625	29966.2429799705	-70.4409171921237	
54116.953125	31842.4432022738	-67.4980059811416	
50118.72265625	34808.4721897404	-67.6006639181287	
46415.88671875	35849.6446314147	-66.4928035187872	
42986.625	37832.2604283931	-67.5667292934522	
39810.71875	41437.5535369756	-65.6441132323799	
36869.44921875	45686.0115626657	-63.1770901120966	
34145.48828125	45487.5172673806	-58.6528873509814	
31622.77734375	48729.4577146251	-61.6060064271187	
29286.4453125	55083.8784586732	-55.2729599643348	
27122.7265625	56698.3232775029	-53.5649458811096	
25118.865234375	59943.0981735984	-52.0593307412897	
23263.05078125	62767.6705182915	-50.3073776385542	
21544.34765625	65612.7407319561	-48.79430729965	
19952.623046875	68465.5258984158	-46.7791574027947	
18478.498046875	71613.5528448482	-45.0371518510247	
17113.283203125	73878.9653824726	-43.6880528208369	
15848.931640625	76747.0259733458	-41.7345175925827	
14677.9931640625	78151.8234917363	-40.7471662283464	
13593.5634765625	82160.7900937891	-37.906240991893	
12589.25390625	83218.6262167053	-36.235191300249	
11659.1435546875	85799.9014787169	-35.1100892570198	
10797.751953125	89004.6715514544	-32.9031013866512	
10000	91212.6427647218	-31.2962046700378	
9261.1875	93900.422317653	-29.9918975835023	
8576.958984375	95976.7971838277	-28.5280785028975	
7943.2822265625	97770.7079992247	-27.7969303756392	
7356.42236328125	96742.0837738552	-25.1184955255739	
6812.9208984375	101321.31183171	-23.6459436496918	
6309.5732421875	102699.50005963	-22.8181567814884	
5843.4140625	102178.948887048	-21.1779625021951	
5411.6953125	103376.156816714	-20.7803001916712	
5011.87255859375	104528.020467272	-19.0327057613905	
4641.5888671875	105654.06201808	-18.0846629536026	
4298.662109375	107935.035715237	-17.3030347932981	
3981.07177734375	108783.377641728	-15.9344261350236	
3686.94506835938	106502.752027232	-15.2764728667965	
3414.548828125	109044.984073053	-14.4786509457768	
3162.27758789063	110339.026661935	-14.2308600867705	
2928.64453125	111166.592521938	-12.2386309631854	
2712.2724609375	111820.770346905	-11.6073710343065	
2511.88647460938	112185.562546643	-11.0956897655686	
2326.30517578125	112648.969078184	-10.5996087302621	
2154.4345703125	113199.983986318	-10.0813762675834	
1995.26232910156	113851.987841963	-9.62753953321468	
1847.84985351563	114347.57585058	-9.25800362229123	
1711.32824707031	114791.407774797	-8.94176138061061	
1584.89318847656	115276.915578626	-8.56914558393635	
1467.79931640625	115806.607058889	-8.25917623547615	
1359.3564453125	116090.693538987	-7.93206666946591	
1258.92541503906	116579.811945412	-7.63410967604434	
1165.91442871094	117047.818506988	-7.48090776312066	
1079.77514648438	117527.382106944	-7.27438511819877	
1000	118309.121480962	-5.0324292214993	
926.118713378906	118559.244262524	-4.98668059449102	
857.695922851563	119062.242164288	-4.99906079303072	
794.328247070313	119405.353357102	-4.90345640500176	
735.642272949219	119848.385850587	-4.95274931323525	
681.292053222656	120254.506586961	-4.93559783670362	
630.957336425781	120642.536330169	-4.88047635873415	
584.341430664063	121040.07928587	-4.86885126996698	
541.169555664063	121450.572253473	-4.92625479582498	
501.187225341797	121851.321973347	-4.81555729321937	
464.158874511719	122209.455281329	-4.83506910369339	
429.866241455078	122716.398088073	-4.89778086468107	
398.107177734375	123125.676205219	-4.84871086760037	
368.694519042969	123632.770750936	-4.95462755758003	
341.454895019531	124050.191947504	-4.97245427511161	
316.227752685547	124478.812482423	-4.98834653834365	
292.864471435547	125055.499217315	-4.99816689100381	
271.227264404297	125432.315377479	-5.01706853987269	
251.18864440918	125837.674372954	-5.02376120691915	
232.630508422852	126419.062893752	-5.1116026800818	
215.443466186523	126899.613575504	-5.14067227449832	
199.526229858398	127426.361503584	-5.22872780886494	
184.784973144531	127923.207293343	-5.23561700131916	
171.132827758789	128408.631173065	-5.23374615255893	
158.489318847656	129051.957892668	-5.36442459476069	
146.779922485352	129339.838825715	-5.27202594978689	
135.935638427734	130106.116896201	-5.4859332284209	
125.892539978027	130666.713524102	-5.52755292943123	
116.591438293457	131375.072691037	-5.69027924064294	
107.977516174316	131845.712015171	-5.67653771929784	
100	132315.414073758	-5.8006274264219	
92.6118698120117	132954.536516259	-5.81365298880339	
85.7695922851563	133589.09657909	-5.85136452910652	
79.4328231811523	134250.42434638	-6.0522162910376	
73.5642242431641	135525.93152119	-5.9791523491774	
68.1292037963867	135440.058248926	-6.14463437427025	
63.0957336425781	135745.777071939	-6.11978607524318	
58.4341430664063	137649.521393132	-6.23680235529357	
54.1169509887695	138172.544316977	-6.13554175602294	
50.118724822998	138308.205373542	-6.85783281481864	
46.4158897399902	139385.428309488	-6.92054788280793	
42.9866218566895	139619.68584181	-6.36860027632857	
39.810718536377	141054.807002168	-6.56982094525285	
36.8694496154785	140851.812084657	-6.91190842239207	
34.1454887390137	142475.073525436	-6.98702415070549	
31.6227760314941	143007.110251571	-6.9791190141719	
29.2864456176758	143618.009681881	-7.16295577267736	
27.1227264404297	144985.799351168	-7.39558235663082	
25.1188640594482	145676.240614525	-7.45229252872814	
23.2630500793457	146705.471235631	-7.49726498760258	
21.5443477630615	147683.465709483	-7.77764057301129	
19.9526233673096	148564.055066505	-7.89670495438563	
18.4784984588623	149483.477894998	-8.01134148141761	
17.1132831573486	150645.509941352	-8.05379834101113	
15.8489322662354	151364.052911777	-8.13184323914982	
14.6779928207397	152299.097698167	-8.27774239912458	
13.5935640335083	153677.250542859	-8.44677233199135	
12.5892543792725	154700.70521917	-8.53688477316084	
11.6591444015503	155955.646386748	-8.63893811509162	
10.7977514266968	157026.905747897	-8.82371883107942	
10	157887.129808972	-8.91026469852872	
9.26118755340576	159127.605544819	-9.13303390908079	
8.57695865631104	160154.258021099	-9.19263916249887	
7.94328212738037	161783.815730642	-9.33050312608218	
7.35642242431641	162953.232417252	-9.53656101613616	
6.81292057037354	164243.852524707	-9.71278631343808	
6.30957365036011	165371.203836269	-9.79921611566296	
5.84341430664063	166592.35596668	-10.0096063344489	
5.41169548034668	168029.074117425	-10.123894818767	
5.01187229156494	169669.706125785	-10.3905601595988	
4.64158868789673	171213.091686369	-10.4948130256727	
4.29866218566895	172824.692636898	-10.5749372831852	
3.98107171058655	174009.640134843	-10.8636213316801	
3.68694496154785	175794.123034751	-11.0471448489988	
3.41454887390137	177642.979950882	-11.0930450624592	
3.16227769851685	179258.996183655	-11.4795684505685	
2.92864465713501	180807.767574572	-11.5278282443044	
2.71227264404297	182499.361828405	-11.7546986754353	
2.51188635826111	184617.962420222	-11.7915698919521	
2.32630515098572	186915.914974289	-12.16485043474	
2.15443468093872	188247.028555121	-12.3919326205716	
1.99526226520538	190301.124855338	-12.4615296244311	
1.84784984588623	192436.063675242	-12.6847261551696	
1.71132826805115	194391.489286679	-12.7996903860684	
1.58489322662354	197025.772267494	-12.8578054836007	
1.46779930591583	199965.079779491	-13.1464268265477	
1.35935640335083	202254.233298017	-13.5096699988916	
1.25892543792725	204131.210993088	-13.7213707630408	
1.16591441631317	206355.947835755	-13.8101755072111	
1.07977521419525	209093.280578254	-13.8926785684305	
1	211532.265385792	-14.004015381158	
0.926118731498718	214489.010731358	-14.3597553671244	
0.857695877552032	218240.41220358	-14.323195990929	
0.794328212738037	220970.628423117	-14.6316274945326	
0.73564225435257	223700.052301182	-14.382334988632	
0.681292057037354	226141.782474084	-14.6391543817687	
0.630957365036011	229464.559674337	-14.658735921303	
0.584341406822205	232960.43534788	-14.978339791723	
0.54116952419281	237537.619646853	-14.8302199311862	
0.501187205314636	241027.084666102	-15.0026828783866	
0.464158892631531	243151.8540551	-14.777413507262	
0.429866224527359	246683.851702767	-15.0611946984954	
0.398107171058655	250264.69636359	-14.9413257932222	
0.368694514036179	255694.275618116	-14.9469098456506	
0.341454893350601	257845.223742163	-14.6529315440511	
0.31622776389122	261786.936207461	-14.5106805764311	
0.292864441871643	265394.822827101	-14.844630914909	
0.271227270364761	271075.964574493	-14.531136133192	
0.251188635826111	275069.998841516	-14.4854408653022	
0.232630506157875	276619.279668524	-14.2032810500318	
0.215443462133408	281390.025294617	-14.3935491823835	
0.199526235461235	284811.529172779	-14.1753641017749	
0.184784978628159	289806.357322541	-13.5669159037987	
0.171132832765579	291913.168051677	-13.6771140285397	
0.158489316701889	295675.933213795	-13.4585852412404	
0.146779924631119	301909.572957671	-13.3628971550595	
0.135935634374619	303658.699046805	-12.8087198612984	
0.125892534852028	307334.654171948	-12.5625287106039	
0.116591438651085	311499.133174182	-12.8477868715264	
0.107977516949177	316512.018689156	-12.185642313809	
0.100000001490116	320539.658675676	-11.9999841548469	
